"","SampleName","n_seqs","total_annotation_names","unique_annotation_names","total_annotated_contigs","unique_annotations","annotations_w_false_crbb","total_OrthoDB","unique_OrthoDB","false_crbb_OrthoDB","total_Pfam","unique_Pfam","false_crbb_Pfam","total_Rfam","unique_Rfam","false_crbb_Rfam"
"1","MMETSP0004",33559,54240,15412,26851,12707,2246,15073,8726,1582,39033,5284,763,134,37,7
"2","MMETSP0005",32824,54436,15033,26252,12246,1748,14760,8499,1183,39209,5213,619,467,143,31
"3","MMETSP0006",47463,66289,18969,36795,17810,4691,19610,11816,3210,46579,7783,1624,100,32,3
"4","MMETSP0007",30922,24666,9480,17308,7773,1368,8469,5057,931,15538,3680,452,659,219,65
"5","MMETSP0009",54275,55697,13106,36990,12576,NA,11802,6984,NA,43743,7350,NA,152,45,NA
"6","MMETSP0010",43375,77486,14760,35765,14801,3675,19185,11862,2705,57818,8880,1252,483,135,65
"7","MMETSP0011",45875,193668,10984,38133,16586,817,26881,18933,700,166005,11552,203,782,210,118
"8","MMETSP0013",38251,81253,12909,31753,12577,1821,14684,8374,1121,66257,8480,1119,312,84,39
"9","MMETSP0014",63046,127076,20623,53016,19486,3120,33805,17288,2516,92636,12527,965,635,203,89
"10","MMETSP0015",63642,114650,22897,51417,24795,6710,33140,20329,5834,81144,10390,1499,366,119,68
"11","MMETSP0017",46484,122837,13833,38737,14834,2574,16727,10208,1476,105732,10325,1798,378,98,44
"12","MMETSP0018",19640,6224,5147,6042,4717,727,5490,4748,697,586,118,21,148,56,15
"13","MMETSP0019",34469,53190,12313,24612,10952,1287,10929,6882,839,41871,5789,509,390,122,39
"14","MMETSP0020",2399,52491,12162,26400,11136,233,10783,7097,152,41578,5384,91,130,40,3
"15","MMETSP0027",162399,206957,34108,128617,43859,12249,39042,22751,5600,167725,25520,7449,190,35,6
"16","MMETSP0029",160017,206005,33979,127091,43358,11847,38914,22669,5479,166920,25215,7168,171,29,3
"17","MMETSP0030",98850,210029,34445,129305,44440,7219,39478,23082,3294,170333,25798,4375,218,47,11
"18","MMETSP0031",151377,188425,32527,119168,40672,12039,36984,21846,5886,151246,22901,6950,195,33,9
"19","MMETSP0033",31615,72924,19048,27486,17600,3170,20081,12841,2280,52255,5814,955,588,192,48
"20","MMETSP0034",73008,158401,28767,57517,33422,6279,46751,29153,4882,110439,12951,1594,1211,388,160
"21","MMETSP0038",90051,168081,27498,70622,30343,10551,44041,26274,8077,123574,12872,3311,466,149,46
"22","MMETSP0039",154322,132872,31204,75943,30262,18228,39334,22120,12493,93033,12033,6985,505,223,103
"23","MMETSP0040",37737,57082,15825,29136,14679,3010,14925,9045,2031,41828,7107,1023,329,120,27
"24","MMETSP0041",41011,70742,18522,33419,16852,3442,17451,10487,2284,52909,8137,1253,382,129,54
"25","MMETSP0042",35570,71347,15247,28240,14199,1205,14136,8931,913,56860,7335,330,351,92,27
"26","MMETSP0043",63330,114338,26904,50212,25970,7911,29440,16933,4979,84462,11203,3362,436,132,55
"27","MMETSP0044",266,301,200,207,120,68,121,94,45,126,15,11,54,17,16
"28","MMETSP0045",17857,21043,8044,13254,6576,490,5944,3852,385,14990,3093,110,109,34,3
"29","MMETSP0046",52725,174993,19286,46067,20339,4202,27581,16586,2804,147078,11943,1647,334,83,47
"30","MMETSP0047",68249,119912,29110,52967,27966,9104,31691,18027,5599,87811,11793,3838,410,129,77
"31","MMETSP0052",35064,43779,17226,27320,15803,1602,20098,13321,1483,23398,3138,125,283,70,14
"32","MMETSP0053",119667,148580,35942,82698,39545,11073,51678,27990,7580,96807,15918,4033,95,23,5
"33","MMETSP0055",109610,129128,33894,75869,36366,11202,47719,26022,7621,81303,13980,4028,106,27,10
"34","MMETSP0056",129657,163783,37790,88206,41888,8053,55817,29463,5674,107556,17384,2733,410,121,30
"35","MMETSP0057",132248,163397,39043,91148,44581,12535,59595,32706,8756,103674,16587,4315,128,26,9
"36","MMETSP0058",50667,82828,17623,30823,15928,3174,16511,9986,2100,66201,7688,1177,116,31,17
"37","MMETSP0059",51327,80168,17422,30448,15683,2860,16086,9665,1892,63941,7678,1070,141,34,20
"38","MMETSP0063",45607,55724,18251,28019,15389,3012,19855,12015,2356,35568,4968,709,301,63,23
"39","MMETSP0086",30668,34260,12143,22956,10343,2696,11108,7409,1925,22797,3856,829,355,106,28
"40","MMETSP0087",51229,92319,23073,43691,21895,3687,24785,15045,2429,66966,8667,1407,568,161,48
"41","MMETSP0090",27381,47119,12124,22308,10156,817,10913,6296,580,36038,5339,285,168,58,10
"42","MMETSP0091",25981,32513,10025,20472,8692,668,8624,5337,486,23626,4560,204,263,80,23
"43","MMETSP0093",110519,170923,38126,87678,39808,8688,50214,25308,5691,120425,18498,3458,284,60,14
"44","MMETSP0095",112256,183728,38962,89039,42116,8159,53351,27717,5501,130062,18751,3179,315,71,25
"45","MMETSP0096",109825,174283,38507,88707,41875,9660,52583,27865,6430,121429,18010,3767,271,63,15
"46","MMETSP0097",116587,199027,39959,91240,43724,7276,56216,29228,5053,142499,19322,2671,312,62,26
"47","MMETSP0098",45351,95338,17342,28501,17606,NA,19745,15614,NA,75215,5295,NA,378,114,NA
"48","MMETSP0099",17555,28354,8689,12642,6970,NA,6133,4018,NA,22114,3371,NA,107,39,NA
"49","MMETSP0100",20798,36672,9822,14774,7997,1080,7089,4663,654,29449,3834,446,134,48,15
"50","MMETSP0101",54783,87711,19508,41594,19286,5982,20492,12458,3723,66544,9530,2632,675,235,66
"51","MMETSP0102",35999,57287,12990,28846,11752,2646,12965,7763,1738,43795,5338,1032,527,169,29
"52","MMETSP0103",38037,68829,16679,31591,16108,6521,14956,9612,3808,53524,7925,3085,349,120,41
"53","MMETSP0104",29752,57190,12575,24785,11210,NA,10823,6971,NA,46070,5450,NA,297,89,NA
"54","MMETSP0105",37731,73612,18982,30780,16898,NA,17391,11661,NA,55549,6749,NA,672,214,NA
"55","MMETSP0106",36426,82333,17885,30124,15910,NA,17346,11406,NA,64359,6427,NA,628,188,NA
"56","MMETSP0107",66173,102568,23729,52348,23319,4193,25660,15849,2731,76223,11107,1621,685,215,66
"57","MMETSP0108",76291,131464,28694,58549,28636,4806,30793,18981,2964,100024,14090,2029,647,175,35
"58","MMETSP0109",35061,80076,17897,29620,16244,1492,17571,10631,1138,62292,7636,407,213,71,25
"59","MMETSP0110",3367,59805,12299,21138,11109,NA,9993,6424,NA,49689,5856,NA,123,40,NA
"60","MMETSP0111",39306,65437,17222,30375,15598,NA,16395,9811,NA,48587,7301,NA,455,139,NA
"61","MMETSP0112",23258,42809,11129,17654,9422,2133,10049,6087,1455,32414,4384,737,346,97,31
"62","MMETSP0113",2389,41557,12065,22648,10693,43,9759,6255,31,31598,5266,14,200,56,0
"63","MMETSP0114",36363,70197,16436,28003,14809,4151,14976,9620,2619,55142,6128,1712,79,22,7
"64","MMETSP0116",128413,166455,39303,96103,41943,10976,50484,27294,7272,115678,18821,4248,293,40,20
"65","MMETSP0117",128035,122068,36063,77751,37078,17695,40053,23434,10684,81145,16493,7832,870,248,42
"66","MMETSP0118",130753,174654,42014,101265,47090,13710,59944,32600,9420,114471,19372,4926,239,57,20
"67","MMETSP0119",123721,156474,39851,86611,43712,10444,55385,31582,7590,100063,16542,3301,1026,288,84
"68","MMETSP0120",134492,192744,40198,101268,44427,7297,52475,28271,4741,139977,21189,2964,292,54,9
"69","MMETSP0121",53496,53934,18786,37674,17298,1747,21365,12511,1511,32339,6235,345,230,64,7
"70","MMETSP0123",38054,25872,10682,17163,9166,2180,9661,7068,1662,15909,2474,528,302,108,43
"71","MMETSP0125",41818,32285,10855,18083,9928,1956,10564,7928,1575,21386,2789,410,335,99,32
"72","MMETSP0126",119699,95263,32373,64070,32374,14456,35211,23436,9672,59373,11435,5392,679,222,44
"73","MMETSP0127",83965,83962,20791,61950,21856,7221,21603,14266,4218,62078,11203,3562,281,85,14
"74","MMETSP0132",16419,11872,4726,10081,4339,1427,4340,3169,1031,7513,1948,530,19,7,2
"75","MMETSP0139",819,45591,12198,21791,10187,21,11182,6160,12,34322,5031,8,87,26,0
"76","MMETSP0140",1619,44973,11955,21715,9913,67,10928,5989,48,33872,5050,20,173,53,0
"77","MMETSP0141",28457,43523,11996,21298,9902,886,10829,5921,614,32544,4984,302,150,48,12
"78","MMETSP0142",1456,45646,12097,21248,10095,31,11117,6066,20,34334,4987,10,195,58,0
"79","MMETSP0143",95064,127710,33139,76535,38582,9261,47036,28471,6685,80515,12984,2803,159,45,15
"80","MMETSP0145",68584,77930,24823,51411,26308,10732,31971,20095,8022,45841,7666,2945,118,35,9
"81","MMETSP0146",76269,90205,27369,58241,29611,NA,36338,22471,NA,53751,9079,NA,116,28,NA
"82","MMETSP0147",76587,88997,27625,58230,29248,NA,35225,21348,NA,53645,9480,NA,127,34,NA
"83","MMETSP0149",27809,43224,10918,21857,9457,1083,9068,5392,632,34077,5160,519,79,20,5
"84","MMETSP0150",2013,47770,11868,23716,10408,26,10212,5877,17,37483,5840,27,75,25,0
"85","MMETSP0151",45281,71482,19232,35599,19392,5502,19954,13198,3713,51052,7323,1916,476,135,36
"86","MMETSP0152",39510,47544,11913,29750,11630,NA,10197,6347,NA,37273,6672,NA,74,24,NA
"87","MMETSP0154",44023,54873,13046,33366,12959,2171,11673,7189,1271,43115,7581,1095,85,32,12
"88","MMETSP0156",32947,58199,12067,26731,11826,1075,10013,6000,588,48085,7202,556,101,31,16
"89","MMETSP0158",32424,59341,12167,26524,12001,813,10106,6078,433,49129,7351,441,106,29,10
"90","MMETSP0160",40058,51713,16289,30537,14938,3120,16596,9903,2299,34626,6354,924,491,137,34
"91","MMETSP0161",40496,65305,18540,33040,18356,3468,19428,12765,2586,45306,6882,945,571,159,34
"92","MMETSP0164",53504,60967,20886,36405,19002,5030,20850,12499,3611,39761,7811,1532,356,96,25
"93","MMETSP0166",26006,63592,13244,21909,12252,2521,11175,7462,1436,52266,5969,1184,151,55,32
"94","MMETSP0167",29515,45836,13879,20910,13679,2346,16656,11800,2136,28933,3203,254,247,104,28
"95","MMETSP0168",22740,80268,17416,20776,14138,1077,15751,10028,783,64146,5526,302,371,86,33
"96","MMETSP0169",2087,20643,9762,21845,8468,114,9759,5842,81,10807,3124,33,77,27,0
"97","MMETSP0171",50958,59293,16673,37100,15671,1972,17966,10631,1488,41163,7428,601,164,46,12
"98","MMETSP0173",22363,45797,12096,19097,10288,1806,9915,6304,1084,35282,4928,769,600,196,38
"99","MMETSP0174",64653,65021,14806,42607,14477,1649,13855,8347,947,51065,8969,880,101,46,21
"100","MMETSP0176",65912,63182,14801,43338,14520,1687,13892,8373,970,49102,8931,869,188,58,9
"101","MMETSP0186",1669,1993,1168,1257,933,648,906,732,500,991,225,153,96,29,6
"102","MMETSP0190",77773,58298,17424,57700,17670,5350,19456,12542,3688,38622,8562,2011,220,75,19
"103","MMETSP0191",109081,105338,25255,80992,29944,8381,28780,18129,4903,76161,15869,3896,397,123,49
"104","MMETSP0198",24096,41625,11879,19357,9669,1032,9345,5986,591,32191,4534,484,89,34,15
"105","MMETSP0199",24103,40055,11776,19384,9603,1302,9175,5936,754,30795,4518,632,85,30,5
"106","MMETSP0200",687,42394,9775,14643,7732,23,7646,4426,16,34610,4251,7,138,43,0
"107","MMETSP0201",169586,205814,34491,129657,44053,14058,39458,23087,6626,166167,25440,8380,189,43,8
"108","MMETSP0202",137008,146597,28755,98021,34152,12381,30820,18130,6275,115619,19270,6678,158,35,6
"109","MMETSP0205",33076,25702,9132,22322,8651,NA,8185,6068,NA,17021,3007,NA,496,179,NA
"110","MMETSP0206",25681,27814,10259,17382,9279,2596,8823,6707,1928,18752,3132,708,239,91,18
"111","MMETSP0208",42764,30903,10898,22163,9369,1229,10893,7329,909,19709,2800,320,301,106,39
"112","MMETSP0209",42255,40417,9577,36427,9192,1324,8566,5061,713,31788,5716,741,63,23,10
"113","MMETSP0210",37783,13522,8998,11230,8575,NA,9920,8660,NA,3494,384,NA,108,34,NA
"114","MMETSP0211",44971,30035,11900,20723,10628,NA,12433,9250,NA,17063,2393,NA,539,167,NA
"115","MMETSP0213",43586,31539,10936,26884,9863,2827,10736,7658,2069,20695,3472,873,108,36,15
"116","MMETSP0216",65706,93662,15712,49497,16213,3295,16202,10394,2040,77123,8623,1481,337,111,42
"117","MMETSP0224",74092,107850,21850,56480,22831,4984,22103,12515,2808,85574,12675,2489,173,69,21
"118","MMETSP0225",849,257,176,451,142,102,184,136,90,72,30,23,1,0,0
"119","MMETSP0227",103802,121085,27439,76505,29797,7861,35098,19678,4807,85689,14058,3540,298,63,18
"120","MMETSP0228",24588,162745,38097,91249,41390,2422,53399,28044,1625,109199,17890,877,147,28,1
"121","MMETSP0229",321,49,47,156,33,23,38,29,19,11,4,3,0,0,0
"122","MMETSP0232",342,623,410,324,272,50,315,311,52,288,1,0,20,7,0
"123","MMETSP0233",9596,24314,8046,8752,6643,2019,8636,8600,3021,15534,14,7,144,45,8
"124","MMETSP0234",9454,24777,8048,8632,6663,1872,8528,8490,2662,16087,14,4,162,38,5
"125","MMETSP0235",9594,19071,7429,8955,6531,3435,8863,8838,4902,10115,10,4,93,38,9
"126","MMETSP0251",18649,5765,2427,7894,NA,NA,3461,NA,NA,2188,NA,NA,116,NA,NA
"127","MMETSP0252",4,5,3,4,2,NA,3,2,NA,2,0,NA,0,0,NA
"128","MMETSP0253",66402,104642,18947,54958,20542,NA,18489,10671,NA,86111,12197,NA,42,11,NA
"129","MMETSP0258",58916,104637,18026,47635,20132,2627,17082,9790,1218,87439,11996,1589,116,24,4
"130","MMETSP0259",61314,104999,18242,48693,20610,2844,17273,9954,1328,87535,12248,1701,191,48,6
"131","MMETSP0267",111341,151003,35164,80242,39073,8836,50940,27826,6140,99885,15531,3084,178,41,16
"132","MMETSP0268",68103,72379,22425,48617,21903,1799,26423,15127,1528,45875,8744,388,81,17,1
"133","MMETSP0269",115754,160522,36304,83472,41298,8709,54095,29694,6103,106252,16139,2932,175,35,11
"134","MMETSP0270",149312,209216,40565,120819,47063,9782,53203,29202,5863,155579,23520,4521,434,59,29
"135","MMETSP0271",153198,207022,40343,122333,46496,10415,52837,28837,6029,153572,23768,5063,613,106,27
"136","MMETSP0272",149749,198077,39793,119243,45112,10163,51258,28027,6105,146404,22904,4757,415,63,23
"137","MMETSP0286",43188,40685,14111,27291,11806,2046,15194,8431,1496,25260,4735,568,231,61,15
"138","MMETSP0287",54406,73014,19824,42812,19497,4609,19873,11595,2956,52894,9509,1789,247,70,21
"139","MMETSP0288",45732,57421,17481,33704,13209,1827,17743,8762,1177,39006,6006,676,672,202,63
"140","MMETSP0290",56191,54756,16429,37920,13355,2929,16426,8769,1894,38159,5537,1128,171,63,24
"141","MMETSP0292",44889,60551,17705,30400,16449,4127,18845,11876,3132,41451,5842,1086,255,75,26
"142","MMETSP0294",52840,77223,19985,36244,18853,NA,22261,13828,NA,54615,6766,NA,347,104,NA
"143","MMETSP0295",1728,59923,17388,30522,15690,NA,18120,11258,NA,41585,5787,NA,218,71,NA
"144","MMETSP0296",3139,60933,17529,29283,15642,217,17950,10993,157,42675,6122,62,308,100,0
"145","MMETSP0308",46659,76531,19118,30755,17124,NA,18944,12660,NA,57297,6087,NA,290,98,NA
"146","MMETSP0312",18679,37061,8260,12100,6039,257,6614,4462,176,30214,2999,81,233,79,21
"147","MMETSP0313",22715,34791,10308,17605,8398,1520,8422,5419,990,26286,3927,607,83,27,10
"148","MMETSP0314",25394,42272,13398,19560,12972,2276,15629,11111,2074,26204,3042,241,439,135,34
"149","MMETSP0315",25364,38077,9831,17023,8567,1012,8634,5920,714,29201,4557,360,242,76,12
"150","MMETSP0316",19655,28541,8130,16072,7014,1678,6363,3728,976,22071,3828,768,107,29,12
"151","MMETSP0317",18385,25123,7564,14789,6306,1679,5789,3390,1004,19239,3351,725,95,29,12
"152","MMETSP0318",27058,36415,10139,21624,9110,2126,8138,4750,1186,28206,5127,1041,71,17,3
"153","MMETSP0319",868,55528,12793,27385,11277,9,11381,6410,7,43937,6726,1,210,63,0
"154","MMETSP0320",34068,54653,12795,28053,11462,932,11459,6534,555,43018,6800,488,176,52,16
"155","MMETSP0321",34549,57140,11784,25923,10812,568,10387,6390,358,46120,6501,273,633,178,38
"156","MMETSP0322",1780,39019,9406,17339,8235,NA,7086,4387,NA,31776,4739,NA,157,45,NA
"157","MMETSP0323",42298,26237,10489,22091,8993,NA,10626,6693,NA,15511,3264,NA,100,28,NA
"158","MMETSP0324",99510,114758,28049,67760,29558,6042,34679,20707,4246,79774,10971,2104,305,32,11
"159","MMETSP0325",97130,121012,28026,66666,29580,4865,35136,20869,3464,85541,11190,1632,335,35,11
"160","MMETSP0326",44293,28687,10985,23149,9505,1719,11323,7108,1363,16916,3481,433,448,129,42
"161","MMETSP0327",2375,45040,10812,19475,9336,53,8822,5264,38,35928,5213,23,290,83,0
"162","MMETSP0328",67858,71984,15508,49505,19289,10802,30438,17779,8948,41465,8026,4118,81,24,14
"163","MMETSP0329",1213,2376,888,1010,486,32,451,284,23,1922,249,10,3,0,0
"164","MMETSP0347",28633,36004,10138,21610,9144,7045,10281,5837,4457,25677,5081,3670,46,12,11
"165","MMETSP0359",178850,293585,39646,126570,52147,8516,73683,42913,6782,218541,26477,3265,1367,154,63
"166","MMETSP0360",108509,137971,33576,84019,33644,NA,40255,21243,NA,97468,15903,NA,248,36,NA
"167","MMETSP0361",184980,295191,40680,131056,52729,NA,75817,43291,NA,218015,27452,NA,1359,170,NA
"168","MMETSP0367",106068,153247,34216,80732,36461,6443,43258,23453,4332,109707,16208,2522,282,42,16
"169","MMETSP0368",107051,150723,34220,81090,35868,6802,42909,23132,4519,107574,16243,2731,240,28,9
"170","MMETSP0369",115322,151287,34828,84578,36469,7349,43869,23547,4894,107160,16807,2932,258,39,10
"171","MMETSP0370",105955,132713,32579,77923,33246,8045,39348,21254,5197,93135,15295,3288,230,23,10
"172","MMETSP0371",29064,130185,32344,77388,32812,2199,39086,21040,1399,90896,15103,905,203,28,6
"173","MMETSP0372",3023,2107,735,2037,602,145,1079,755,124,1008,227,43,20,12,2
"174","MMETSP0378",42220,28899,10096,23954,9134,959,9524,5749,756,19332,4421,289,43,12,0
"175","MMETSP0380",38153,23528,8540,20442,7508,682,8015,4881,539,15103,3595,190,410,124,42
"176","MMETSP0382",126886,228219,41708,100534,49253,6825,59698,31826,4674,168262,22470,2592,259,39,9
"177","MMETSP0384",183765,269259,61300,144384,73301,26904,85305,50483,19076,183290,29010,8752,664,178,54
"178","MMETSP0397",25997,37435,10540,20782,9276,1017,9613,5599,679,26785,4785,367,1037,321,111
"179","MMETSP0403",40523,59982,15513,32467,13206,1236,15092,8052,805,44571,7175,487,319,92,13
"180","MMETSP0404",1966,59582,15977,33998,13647,NA,15398,8242,NA,44038,7172,NA,146,41,NA
"181","MMETSP0405",31060,54548,12965,25206,12366,NA,11457,7661,NA,43003,6412,NA,88,39,NA
"182","MMETSP0409",39544,43733,15906,26016,14648,7638,15057,9707,4932,28286,6005,3071,390,136,50
"183","MMETSP0410",45691,57795,18890,31212,18063,NA,19074,12135,NA,38273,7201,NA,448,135,NA
"184","MMETSP0411",46319,54027,18672,31029,17602,NA,18547,11859,NA,35052,6976,NA,428,138,NA
"185","MMETSP0413",30376,72577,15752,26546,14828,2844,13741,9422,1724,58727,7055,1251,109,33,13
"186","MMETSP0414",45862,60021,18999,29716,17487,6566,18893,11795,4300,40511,7045,2471,617,173,58
"187","MMETSP0415",49680,59577,19503,33477,18480,8018,19895,12363,5092,39042,7590,3174,640,180,47
"188","MMETSP0416",47790,68928,19537,38204,17791,2331,21192,12808,1735,47135,7231,674,601,193,34
"189","MMETSP0417",19033,52537,13708,17091,11162,878,12469,8195,695,39944,3844,205,124,36,9
"190","MMETSP0418",34509,54744,12314,26970,11412,1579,11735,7460,1176,42248,5862,449,763,220,55
"191","MMETSP0420",23290,41371,12615,20686,10937,2069,11203,7470,1326,29988,4511,805,180,52,15
"192","MMETSP0434",48003,42040,15119,26458,14004,4119,14724,10931,3090,26228,4058,1074,1088,379,121
"193","MMETSP0436",33913,24593,9930,16008,8503,1795,9157,6769,1452,14857,2230,339,579,187,53
"194","MMETSP0437",16940,34363,11143,15120,8377,637,9674,5700,495,24493,3322,164,196,51,5
"195","MMETSP0439",1278,1729,1046,1065,667,58,633,529,53,1096,154,6,0,0,0
"196","MMETSP0447",53552,101713,25881,43081,24689,NA,27771,17400,NA,73403,9202,NA,539,158,NA
"197","MMETSP0448",103549,135776,32318,74527,33254,8487,42393,22537,5588,93265,14491,3297,118,38,11
"198","MMETSP0449",19501,25025,9754,13103,8212,1721,9445,6344,1306,15443,2118,427,137,61,20
"199","MMETSP0451",4441,5008,1833,3250,1390,550,1400,1007,358,3603,670,240,5,3,1
"200","MMETSP0463",43507,24690,11710,14804,10359,2631,11175,8867,2080,13294,2106,592,221,84,28
"201","MMETSP0467",117595,136483,38582,73703,42262,15911,53533,32432,11662,82372,12693,4779,578,157,32
"202","MMETSP0468",59363,75415,19512,42400,17696,4814,19611,10983,3016,55589,7964,1968,215,57,12
"203","MMETSP0469",143123,185371,37534,97768,40464,17466,51110,29011,12051,132302,17286,6031,1959,551,277
"204","MMETSP0470",62116,79675,20525,44717,18867,5134,20399,11675,3288,58993,8535,1994,283,84,23
"205","MMETSP0471",60232,80066,20118,44864,18099,5128,20415,11225,3264,58672,8264,2011,979,306,101
"206","MMETSP0472",135916,166807,43939,99848,48005,20378,47800,32135,13286,118291,19022,7744,716,239,55
"207","MMETSP0484",64603,107191,26050,49402,24263,7591,27390,15943,4892,79561,9784,2922,240,52,17
"208","MMETSP0491",43997,56960,17238,29127,14852,3670,16518,9781,2545,40359,6859,1281,83,26,4
"209","MMETSP0492",2621,27422,9778,18776,8108,154,8120,4731,109,19230,4224,45,72,24,0
"210","MMETSP0493",35050,42875,13012,26993,11047,1716,11617,6572,1091,31091,5814,687,167,56,26
"211","MMETSP0494",34814,43281,13017,25891,10821,NA,11826,6586,NA,31328,5431,NA,127,40,NA
"212","MMETSP0503",75283,118702,29889,60155,32974,9690,43039,24232,6944,75517,11181,3090,146,39,9
"213","MMETSP0527",157218,185400,32506,119698,40499,13880,36799,21653,6780,148390,23035,8027,211,49,19
"214","MMETSP0528",158863,187147,32418,120914,40446,13595,36681,21512,6512,150271,23228,7949,195,45,12
"215","MMETSP0562",39369,47410,14122,30032,13121,4247,12556,7771,2680,34696,7125,1918,158,56,34
"216","MMETSP0563",34864,47695,12271,27948,10959,1388,10734,6306,827,36899,6480,666,62,20,2
"217","MMETSP0573",74286,209924,33566,126195,43118,5213,39129,22694,2488,170624,25216,3080,171,38,3
"218","MMETSP0574",33995,239853,35691,129237,46611,NA,41778,23847,NA,197757,27866,NA,318,77,NA
"219","MMETSP0578",29138,36190,10524,23179,9139,1154,8861,5258,706,27182,5215,504,147,46,15
"220","MMETSP0580",23345,37673,10172,18418,8354,693,8201,4841,427,29303,4597,309,169,60,21
"221","MMETSP0593",31357,45681,12102,25258,10498,1283,10218,5943,744,35365,5994,608,98,35,11
"222","MMETSP0595",32131,58334,15141,26109,13086,1876,13653,8157,1209,44514,6093,730,167,49,21
"223","MMETSP0603",26824,42958,11130,22439,9657,915,9080,5230,579,33825,5579,397,53,14,2
"224","MMETSP0604",29387,46167,11774,24343,10211,1101,9727,5599,625,36027,5827,516,413,135,39
"225","MMETSP0648",128923,184332,32418,118781,40767,10835,36415,21289,5257,147710,23187,6222,207,53,14
"226","MMETSP0649",123933,197312,33477,122116,42345,10103,37783,21971,4873,159302,24302,5818,227,49,15
"227","MMETSP0661",160604,252580,50085,128795,64191,NA,88053,47837,NA,161172,24734,NA,3355,1004,NA
"228","MMETSP0689",76432,128009,21865,59897,24772,3019,22285,12575,1467,105546,14374,1826,178,27,11
"229","MMETSP0696",38082,63624,15876,31885,14216,964,15290,8661,653,48210,7656,403,124,30,4
"230","MMETSP0697",39558,65671,16301,32925,14442,875,15853,8907,606,49606,7838,359,212,54,13
"231","MMETSP0698",941,63209,16074,32105,14188,NA,15454,8756,NA,47639,7554,NA,116,30,NA
"232","MMETSP0699",40222,58221,14683,30166,12828,NA,14180,8208,NA,43767,6759,NA,274,93,NA
"233","MMETSP0706",30995,38710,12395,23799,12695,3321,10499,7053,2017,27580,6523,1371,631,224,41
"234","MMETSP0707",2113,52225,12920,25896,11751,126,10903,6367,79,40989,6456,53,333,91,0
"235","MMETSP0708",24762,27159,9990,18070,9599,2073,7963,5302,1306,18720,4994,794,476,186,42
"236","MMETSP0713",2265,43195,11163,22915,10181,113,9272,5688,62,33797,5648,51,126,31,0
"237","MMETSP0718",9747,11241,4158,7065,3259,464,2842,1885,298,8259,1720,172,140,39,8
"238","MMETSP0724",30127,56928,13114,25853,11483,1143,11691,6304,654,45025,6310,551,212,70,8
"239","MMETSP0725",32234,49361,12622,26878,11144,2210,11018,6264,1149,38112,6099,1155,231,70,23
"240","MMETSP0726",23679,33850,9729,19364,8160,2506,8140,4832,1462,25571,3937,1126,139,43,19
"241","MMETSP0727",29922,47000,12124,25008,10647,2118,10516,5986,1133,36334,5624,1107,150,44,21
"242","MMETSP0733",64661,59555,17599,45189,15787,2412,20502,10630,1706,38764,7425,847,289,130,36
"243","MMETSP0734",65906,58880,17545,44489,15555,2465,20430,10562,1738,38095,7193,860,355,161,43
"244","MMETSP0735",64090,58892,17371,44161,15475,2557,19711,10253,1771,38814,7417,919,367,160,53
"245","MMETSP0736",69704,60840,18067,47368,16198,2460,21414,11098,1788,39113,7508,831,313,140,33
"246","MMETSP0737",47167,66041,16657,38173,15266,1451,16295,9093,984,49412,8422,564,334,97,23
"247","MMETSP0738",34790,52420,11879,20729,12759,1514,11884,7942,1065,39827,7094,493,709,237,40
"248","MMETSP0739",43965,49983,14526,33652,13440,2957,13319,7857,1873,36226,7096,1192,438,161,27
"249","MMETSP0740",36324,39485,12282,25054,13862,3867,11719,8300,2444,26576,7034,1541,1190,441,86
"250","MMETSP0744",30737,44667,11554,24609,10516,1182,9717,5851,723,34825,6075,498,125,40,8
"251","MMETSP0745",28275,38947,10986,22829,9849,NA,8909,5448,NA,29930,5466,NA,108,31,NA
"252","MMETSP0746",33793,41946,11558,26490,10572,NA,9726,6009,NA,31984,5885,NA,236,78,NA
"253","MMETSP0747",28743,38810,10995,23233,9900,NA,8973,5462,NA,29734,5551,NA,103,30,NA
"254","MMETSP0751",846,47189,11704,22109,10061,20,9993,5762,12,36921,5751,7,275,89,1
"255","MMETSP0752",33789,52585,13119,25699,11976,NA,11317,6797,NA,40972,6833,NA,296,96,NA
"256","MMETSP0753",1139,44760,12200,24363,10754,NA,10304,6139,NA,34157,6093,NA,299,93,NA
"257","MMETSP0754",1,NA,NA,1,NA,NA,0,NA,NA,0,NA,NA,0,NA,NA
"258","MMETSP0758",14333,54045,8995,12934,7272,755,6840,4415,464,47027,3251,325,178,60,12
"259","MMETSP0759",11692,45870,8354,10386,5952,215,5730,3613,132,40016,2766,93,124,38,10
"260","MMETSP0766",99150,116102,26396,74907,27555,8027,27671,14630,4485,87710,15305,3852,721,214,78
"261","MMETSP0780",50856,112130,16012,39323,16155,NA,23805,15339,NA,87769,7718,NA,556,177,NA
"262","MMETSP0784",123545,198677,35165,94057,39831,7686,39782,22269,4772,158518,21644,3467,377,65,30
"263","MMETSP0785",1753,56195,13563,21312,11234,17,11332,6393,9,44642,5400,9,221,59,0
"264","MMETSP0786",33504,59910,12088,26791,11874,1201,10135,6064,633,49600,7131,625,175,50,18
"265","MMETSP0789",561,905,359,451,200,28,188,120,28,717,110,10,0,0,0
"266","MMETSP0790",118407,154668,37908,91668,40468,12734,51095,26359,8312,103390,18234,4981,183,28,9
"267","MMETSP0794",55772,69947,18433,42449,18104,NA,16477,10540,NA,53022,8877,NA,448,114,NA
"268","MMETSP0795",29024,26159,8968,19687,5908,NA,8728,4204,NA,17070,2389,NA,361,108,NA
"269","MMETSP0796",55303,209995,42151,114947,46908,3532,57122,29617,2256,152633,22977,1447,240,44,3
"270","MMETSP0797",71954,186716,40499,94985,46436,NA,64009,34051,NA,122179,17322,NA,528,138,NA
"271","MMETSP0798",67184,41010,15651,28258,14781,5781,15653,11240,4012,25098,4467,1936,259,67,22
"272","MMETSP0799",105756,113633,23911,72274,27845,6835,31238,19061,4666,81918,11180,2452,477,134,31
"273","MMETSP0800",37562,49936,12287,28391,11438,1214,11798,7073,838,37605,6212,428,533,173,37
"274","MMETSP0802",2991,43363,10681,12131,7874,51,8474,4984,34,34744,3707,15,145,48,1
"275","MMETSP0803",28497,65132,18237,26036,19132,4244,22263,15164,3566,42667,4946,746,202,61,20
"276","MMETSP0804",40880,75511,17010,27602,14140,NA,16653,9362,NA,58684,7296,NA,174,50,NA
"277","MMETSP0806",15581,39559,12238,14133,9639,NA,11297,6882,NA,27774,3660,NA,488,139,NA
"278","MMETSP0807",11627,48205,8397,10242,6555,NA,7531,5319,NA,40440,3196,NA,234,51,NA
"279","MMETSP0809",70116,48526,15768,30703,12997,5638,14795,8929,3860,33600,4846,1934,131,46,24
"280","MMETSP0810",89969,59645,18593,38003,15636,7048,18423,10705,4747,41133,5903,2568,89,35,12
"281","MMETSP0811",110265,65100,20101,43761,16523,6856,20351,11225,4513,44310,6500,2542,439,147,59
"282","MMETSP0812",32473,46772,11592,23047,10237,NA,10000,6525,NA,36600,5092,NA,174,60,NA
"283","MMETSP0814",32869,43165,14079,24169,12166,3752,12922,8094,2469,30171,5156,1424,72,24,6
"284","MMETSP0815",50032,77618,20745,40033,20438,4150,22898,14064,3036,54522,8517,1274,198,60,17
"285","MMETSP0816",53448,42442,12017,31664,11638,2096,10766,6876,1267,31394,6920,959,282,99,26
"286","MMETSP0817",45641,69763,19898,31556,17735,2685,21567,12689,2091,48111,7107,694,85,30,6
"287","MMETSP0818",47874,70796,20139,32154,17862,2615,22083,13036,2013,48610,7136,710,103,36,9
"288","MMETSP0819",48474,69821,20167,31896,17832,2772,22014,12987,2155,47646,7195,711,161,54,14
"289","MMETSP0820",48764,71277,19926,31299,17716,2412,21986,12979,1872,49170,7053,605,121,45,7
"290","MMETSP0850",897,38721,11147,20590,9269,NA,9613,5405,NA,28497,4688,NA,611,197,NA
"291","MMETSP0851",122164,146340,34076,90748,35655,NA,37990,21763,NA,107140,17226,NA,1210,363,NA
"292","MMETSP0852",2110,39858,11336,22628,9524,81,10376,5852,58,29045,5026,22,437,137,1
"293","MMETSP0853",28131,39017,11297,20694,9575,1422,9793,5528,887,28541,4833,529,683,212,49
"294","MMETSP0878",1618,52024,13366,26370,11630,45,11983,7087,28,39825,5900,19,216,61,0
"295","MMETSP0879",31919,52874,13491,26475,11778,704,12223,7253,483,40557,5919,258,94,22,7
"296","MMETSP0880",998,50566,13289,26285,11545,30,11872,7024,19,38522,5832,9,172,44,1
"297","MMETSP0881",31920,51987,13281,26546,11569,739,11998,7118,473,39786,5892,310,203,58,21
"298","MMETSP0882",37257,66847,16251,31151,18042,NA,23294,14424,NA,43495,5711,NA,58,20,NA
"299","MMETSP0883",35078,63568,15690,29304,16999,NA,21790,13464,NA,41733,5378,NA,45,18,NA
"300","MMETSP0884",35880,65683,15944,30126,17779,2587,22652,14177,1999,42969,5542,646,62,21,8
"301","MMETSP0885",36878,68946,16106,31242,18327,2242,23598,14830,1733,45300,5718,556,48,21,4
"302","MMETSP0886",1220,49310,12569,20332,10919,143,12833,7546,88,36360,4350,56,117,37,0
"303","MMETSP0887",26269,58386,14067,22507,12838,2207,14827,8477,1324,43458,5294,965,101,33,7
"304","MMETSP0888",27756,68445,14922,24164,13917,1564,16614,9527,1010,51700,5857,611,131,52,10
"305","MMETSP0889",24178,58618,13477,21052,12636,2095,14403,8453,1307,44120,5017,863,95,26,10
"306","MMETSP0890",3827,38168,10289,19058,9216,243,7646,4725,116,30419,5190,128,103,33,4
"307","MMETSP0891",22054,47411,10486,17414,9250,906,8129,5082,692,39174,5210,313,108,33,2
"308","MMETSP0892",25448,34322,9977,19486,8962,2073,7414,4644,1066,26816,4965,1077,92,32,8
"309","MMETSP0893",26579,38165,10268,20424,9329,790,8068,5093,472,30011,5342,345,86,29,8
"310","MMETSP0894",30847,40828,13218,19057,11082,2460,12360,7528,1709,28376,4604,818,92,31,3
"311","MMETSP0895",27533,35644,12146,16223,10217,2288,11552,7283,1706,23939,3774,641,153,55,12
"312","MMETSP0896",22791,32039,10514,13818,8604,NA,9753,6190,NA,22203,3135,NA,83,33,NA
"313","MMETSP0897",25548,27550,10237,13308,8243,NA,9593,6055,NA,17782,3060,NA,175,66,NA
"314","MMETSP0898",34041,52510,13625,27883,11932,894,12494,7492,580,39927,6061,348,89,23,7
"315","MMETSP0899",33903,52020,13540,27817,11793,908,12467,7456,611,39440,6090,339,113,29,6
"316","MMETSP0900",33908,52269,13444,27563,11701,873,12486,7440,590,39666,6103,321,117,34,4
"317","MMETSP0901",31884,49978,13308,26733,11480,947,11999,7142,601,37888,5869,403,91,24,7
"318","MMETSP0902",43953,53562,14271,33500,12782,1846,12889,7254,1012,40439,7293,950,234,63,11
"319","MMETSP0903",44530,56008,14503,33878,13013,1596,13034,7321,890,42873,7403,819,101,25,9
"320","MMETSP0904",41604,50752,13975,30631,12965,2194,12241,7186,1323,37966,7196,935,545,171,50
"321","MMETSP0905",43618,55980,14387,33557,13019,1408,13136,7393,816,42394,7457,700,450,139,24
"322","MMETSP0906",59819,54183,15557,38216,13534,2125,17083,8859,1477,36661,6832,738,439,204,48
"323","MMETSP0907",57054,53605,16120,39585,14103,2411,17435,9237,1690,35923,6726,847,247,119,43
"324","MMETSP0908",54452,51425,15650,37874,13593,2513,16579,8844,1736,34638,6409,929,208,94,33
"325","MMETSP0909",2602,43552,13394,32520,11565,130,14269,7516,85,28749,5828,46,534,200,1
"326","MMETSP0910",38998,46325,14100,30320,11805,2353,12722,6927,1439,33498,6174,1005,105,31,9
"327","MMETSP0911",28815,30046,10280,21168,8706,1235,8820,5085,797,20896,4624,462,330,90,17
"328","MMETSP0912",1047,1037,618,814,341,49,363,187,27,674,207,22,0,0,0
"329","MMETSP0913",25207,24102,8802,17727,7378,698,7395,4325,492,16415,4034,218,292,91,20
"330","MMETSP0914",37411,73655,17091,34285,24630,4690,30107,21889,3999,43464,5068,811,84,22,4
"331","MMETSP0915",33212,65096,16148,30252,20831,3887,25712,18056,3227,39322,4863,750,62,22,6
"332","MMETSP0916",32727,63858,16116,29842,21050,3601,26013,18366,3052,37779,4723,626,66,20,5
"333","MMETSP0917",32246,65132,15748,29578,20665,3519,25653,18086,2933,39369,4748,671,110,35,12
"334","MMETSP0918",32428,44450,12027,26170,10593,1364,10373,6029,818,33995,6150,620,82,23,3
"335","MMETSP0920",1547,36098,11148,25201,10173,NA,9797,6102,NA,26132,5743,NA,169,55,NA
"336","MMETSP0924",31378,22036,8233,20587,8939,4367,9418,6805,3277,12590,4266,1780,28,9,6
"337","MMETSP0929",9005,33363,8551,8209,5826,204,6230,3753,154,26857,2720,49,276,83,21
"338","MMETSP0930",9482,20339,7337,8338,5299,270,5021,3178,207,15192,2354,61,126,39,4
"339","MMETSP0932",4990,3536,2165,3250,1496,276,1518,913,188,1917,621,80,101,39,19
"340","MMETSP0933",547,32278,8291,8459,5708,12,6071,3492,8,26097,2830,3,110,35,0
"341","MMETSP0936",1792,31004,8315,8368,5911,111,5998,3695,68,24859,2728,44,147,53,10
"342","MMETSP0937",467,1490,654,423,284,25,275,159,15,1214,147,11,1,0,0
"343","MMETSP0938",9193,30469,8494,8376,5862,391,6058,3668,240,24190,2693,143,221,67,25
"344","MMETSP0939",8659,30754,8623,8160,6321,454,6764,4315,332,23806,2389,117,184,56,17
"345","MMETSP0941",14102,42455,10411,12627,7942,458,8440,5505,357,33853,3750,109,162,49,12
"346","MMETSP0942",26963,45187,15721,23156,13505,3338,17055,11088,2743,27830,3187,637,302,91,36
"347","MMETSP0943",38090,62363,19132,29445,16748,2672,19865,11565,1912,41975,6044,787,523,161,68
"348","MMETSP0944",37912,61486,18673,29116,16281,2653,19514,11571,1909,40918,5808,776,1054,322,110
"349","MMETSP0945",20895,37093,11390,17404,10055,3200,8879,6438,2161,27994,4195,1119,220,72,30
"350","MMETSP0946",19763,32857,10802,16433,9378,3879,8253,6063,2638,24425,3856,1373,179,53,22
"351","MMETSP0947",41406,76576,15159,31746,14538,2578,13005,8358,1545,63410,7701,1143,161,53,18
"352","MMETSP0948",39613,69612,14611,30331,13883,NA,12342,8035,NA,57092,7211,NA,178,47,NA
"353","MMETSP0949",39051,68148,14357,29810,13546,NA,12018,7829,NA,55997,7050,NA,133,40,NA
"354","MMETSP0950",41979,75121,14990,31782,14394,2607,12830,8234,1564,62035,7556,1141,256,81,21
"355","MMETSP0954",20518,40365,10185,15506,8665,1106,7810,5197,651,32437,4385,490,118,46,13
"356","MMETSP0955",18613,32084,9247,13920,7780,1239,6929,4657,775,24925,3881,487,230,73,26
"357","MMETSP0956",18498,30872,9145,13850,7657,1531,6850,4596,957,23685,3740,605,337,108,43
"358","MMETSP0957",17377,27660,8589,12753,7171,1354,6282,4227,836,21135,3477,537,243,76,28
"359","MMETSP0958",1898,38877,11338,17193,8968,102,9117,5733,64,29469,3896,41,291,90,0
"360","MMETSP0959",26768,40752,11653,17939,9307,1038,9685,6089,677,30419,4040,365,648,209,51
"361","MMETSP0960",3666,40140,11300,16462,8788,109,9083,5713,69,30819,3848,42,238,76,11
"362","MMETSP0961",641,44510,11521,16353,8910,17,9277,5754,8,34977,3940,10,256,87,0
"363","MMETSP0962",10585,14369,6855,7946,4810,NA,5326,3434,NA,8907,1687,NA,136,39,NA
"364","MMETSP0963",21116,28754,11099,15615,8535,NA,9764,6151,NA,18884,3209,NA,106,45,NA
"365","MMETSP0964",27026,49399,14981,22042,12192,1829,14053,8658,1311,34914,4574,556,432,128,41
"366","MMETSP0965",26520,42509,14032,20843,11134,2091,12809,7881,1512,29467,4206,636,233,75,11
"367","MMETSP0970",37281,49645,14071,30331,12662,1763,13792,8021,1183,35802,6359,714,51,14,6
"368","MMETSP0971",1956,55967,14620,31594,13439,64,15252,8849,42,40632,6768,22,83,24,0
"369","MMETSP0972",1041,51390,14204,30357,12788,39,14057,8185,25,37274,6433,16,59,16,0
"370","MMETSP0973",38954,51442,14235,31244,12826,1619,14373,8274,1151,37013,6663,602,56,16,0
"371","MMETSP0974",34446,68453,17151,28670,16999,NA,21627,12649,NA,46630,5725,NA,196,50,NA
"372","MMETSP0975",1151,64687,16879,27960,16406,38,20440,11901,31,44058,5537,10,189,54,0
"373","MMETSP0976",34837,69683,17442,29015,17481,NA,22182,13146,NA,47083,5664,NA,418,114,NA
"374","MMETSP0977",32790,65312,17001,27970,17072,NA,21275,12693,NA,43944,5542,NA,93,18,NA
"375","MMETSP0982",51740,72872,20572,34542,19058,1339,25116,15025,1210,47305,6466,160,451,100,21
"376","MMETSP0983",50372,68728,20380,34068,18317,1558,23861,14086,1316,44558,6357,273,309,71,13
"377","MMETSP0984",45204,67691,20017,32502,18199,1633,23099,13814,1392,43973,6119,289,619,146,29
"378","MMETSP0985",44622,66639,19842,32313,17912,1855,22777,13636,1592,43487,6158,324,375,89,24
"379","MMETSP0986",69530,108662,26411,49735,23872,5753,29270,16457,3884,79169,9021,2047,223,61,16
"380","MMETSP0987",70994,109196,26615,50246,24057,5505,29806,16647,3749,79197,9143,1914,193,61,15
"381","MMETSP0988",72388,106786,26507,50664,23917,6159,29407,16406,4187,77138,9116,2166,241,71,23
"382","MMETSP0989",70975,112119,26752,50571,24525,5739,30124,16937,3892,81758,9236,2024,237,63,20
"383","MMETSP0990",72218,73394,22879,50040,20758,4435,26953,15064,3374,46079,8705,1219,362,113,25
"384","MMETSP0991",92368,112519,29897,70759,29030,3466,39633,21802,2690,72598,11670,1016,288,73,8
"385","MMETSP0992",75372,83667,26274,56032,24164,6303,31700,17759,4557,51728,9103,1994,239,72,27
"386","MMETSP0993",89404,105445,29146,67010,27646,3642,37629,20570,2882,67518,11131,1000,298,80,18
"387","MMETSP0994",41202,64424,20995,34090,20722,6309,25238,15657,4682,39091,6204,1754,95,22,7
"388","MMETSP0995",40537,62110,20587,33158,19886,5778,24319,14823,4244,37707,6181,1673,84,22,12
"389","MMETSP0996",40306,63424,20651,33272,20129,6121,24642,15193,4543,38688,6095,1728,94,17,4
"390","MMETSP0997",41156,66387,20962,34101,20885,5798,25560,15843,4310,40697,6322,1635,130,30,8
"391","MMETSP0998",39071,59339,13129,29134,12168,NA,11560,6895,NA,47468,6957,NA,311,94,NA
"392","MMETSP1001",33934,54791,12006,25521,11101,1638,10487,6417,988,43783,6186,677,521,165,61
"393","MMETSP1005",27886,36537,9869,20480,8809,1580,8031,5054,973,28358,4738,645,148,55,15
"394","MMETSP1006",29659,45686,16271,24256,15095,NA,18810,11891,NA,26811,4492,NA,65,11,NA
"395","MMETSP1007",29591,45148,15960,24059,14806,NA,18681,11744,NA,26417,4470,NA,50,11,NA
"396","MMETSP1008",35540,54905,18678,29080,17884,5431,22405,13937,4056,32386,5500,1526,114,28,6
"397","MMETSP1009",27243,40339,14832,21923,13336,4479,16983,10728,3406,23262,3972,1199,94,22,4
"398","MMETSP1010",1072,52095,12167,27446,11314,33,10736,6569,19,41096,6502,12,263,86,1
"399","MMETSP1012",70254,115048,17350,51906,19035,NA,22294,13900,NA,91805,12501,NA,949,363,NA
"400","MMETSP1013",36894,52446,12294,27414,11247,NA,10690,6594,NA,41621,6250,NA,135,44,NA
"401","MMETSP1015",125515,155652,26582,98270,33133,9780,28693,17246,4630,126798,19510,5797,161,46,20
"402","MMETSP1016",127015,162991,27013,99015,34049,9491,29339,17550,4356,133473,20086,5745,179,51,26
"403","MMETSP1017",124838,154108,26483,97563,33011,9831,28714,17210,4566,125239,19404,5940,155,41,24
"404","MMETSP1032",123210,206500,42461,99600,52109,10364,67074,37066,7657,139064,19243,3106,362,73,9
"405","MMETSP1033",120654,205191,41866,97748,51218,10036,65965,36477,7453,138934,19047,2967,292,53,7
"406","MMETSP1034",121881,198429,41891,97833,49808,10133,64455,34854,7440,133644,19168,3065,330,72,12
"407","MMETSP1035",119621,213298,42074,97056,51796,9154,67117,37464,6934,145814,19037,2628,367,69,17
"408","MMETSP1036",134290,188463,35437,102053,40173,11263,41605,23170,6046,146712,21091,5917,146,23,8
"409","MMETSP1037",137944,182940,35057,101869,39182,12124,40637,22572,6550,142018,20710,6309,285,64,23
"410","MMETSP1038",136736,194440,35803,102399,40826,NA,42064,23301,NA,152215,21575,NA,161,25,NA
"411","MMETSP1039",1042,42879,11249,24491,10034,NA,9483,5452,NA,33304,5970,NA,92,26,NA
"412","MMETSP1040",2345,39316,10527,22151,9096,158,8764,5138,94,30339,5205,68,213,63,10
"413","MMETSP1041",43207,75856,19644,33915,17120,4034,19527,11100,2725,56168,7170,1431,161,46,13
"414","MMETSP1042",50835,98581,22654,40800,20438,4862,23882,13551,3302,74440,8161,1705,259,76,29
"415","MMETSP1043",43557,78195,19596,34595,17317,4691,19526,11056,3019,58506,7194,1799,163,48,13
"416","MMETSP1047",63132,104411,25116,47894,23279,7697,26524,15499,5008,77680,9286,2960,207,52,12
"417","MMETSP1048",36932,78563,16249,30790,14425,3527,14708,8662,2105,63707,7022,1584,148,40,8
"418","MMETSP1049",49537,72324,15552,34870,14571,3026,14655,8855,1862,57383,7556,1192,286,81,26
"419","MMETSP1050",61034,87959,22726,45756,21930,NA,26398,16290,NA,61304,7552,NA,257,76,NA
"420","MMETSP1052",48484,79514,18431,37757,16616,3143,19181,10674,1912,59901,8684,1323,432,164,43
"421","MMETSP1054",43299,75289,17877,34029,16135,2357,17481,9859,1505,57489,8327,914,319,107,21
"422","MMETSP1055",2187,76429,18078,36861,16574,136,19445,10941,89,56454,8541,52,530,131,1
"423","MMETSP1057",228,260,145,173,62,13,50,26,7,206,40,4,4,2,1
"424","MMETSP1058",33378,58394,12792,26583,11184,591,11292,6309,348,46914,6559,292,188,52,11
"425","MMETSP1059",22519,44719,10976,19435,8982,594,8795,4870,313,35779,5197,294,145,35,11
"426","MMETSP1060",29381,50684,13070,22800,10881,942,12852,7221,691,37385,5091,282,447,128,28
"427","MMETSP1061",34725,51786,14059,27234,12042,866,14563,8084,686,36628,5689,217,595,177,39
"428","MMETSP1062",42787,68927,14135,32128,13311,1480,12909,7479,862,55547,7856,737,471,161,45
"429","MMETSP1063",40929,68661,13753,30703,12925,1202,12532,7299,691,55867,7691,607,262,84,20
"430","MMETSP1064",29571,49313,10118,22812,9196,852,8494,5325,489,40555,5304,410,264,74,9
"431","MMETSP1065",41105,56992,12878,32837,12061,896,11910,7107,566,44841,7250,365,241,70,13
"432","MMETSP1066",65714,66983,16207,43079,15444,3279,15291,9082,1859,51474,8404,1637,218,53,9
"433","MMETSP1067",59660,64210,18654,43668,16870,2745,20392,11409,1898,43502,7678,997,316,106,27
"434","MMETSP1068",71329,94384,25812,49488,26153,3601,33634,20164,2837,60232,9167,857,518,161,47
"435","MMETSP1070",34797,63904,15828,28820,13702,1170,15280,8837,805,48328,6611,404,296,87,26
"436","MMETSP1071",40061,59220,15719,32816,13694,907,15544,8542,620,43293,7131,327,383,113,31
"437","MMETSP1074",137033,158204,29828,108536,35806,8833,34329,18832,4558,123465,21772,4854,410,112,24
"438","MMETSP1075",139430,165956,30273,110158,36388,8096,35380,19195,4196,129995,22111,4420,581,154,37
"439","MMETSP1080",839,42527,12210,14794,10679,64,12362,7968,58,30017,3317,5,148,46,1
"440","MMETSP1081",1336,55771,15030,29179,13766,121,12786,8067,83,42801,6973,37,184,50,0
"441","MMETSP1082",540,48163,11126,11737,8489,NA,9694,6096,NA,38303,3321,NA,166,43,NA
"442","MMETSP1083",44417,66881,18487,35065,17860,NA,19882,12287,NA,46835,7341,NA,164,48,NA
"443","MMETSP1084",14898,45196,12015,13548,9775,819,11319,7326,641,33718,3407,218,159,47,9
"444","MMETSP1085",3456,34187,9781,9862,6770,118,7786,4634,80,26086,2980,35,315,104,5
"445","MMETSP1086",2798,30105,11140,15765,8884,310,9270,6254,225,20640,3432,92,195,49,4
"446","MMETSP1089",56304,91278,23679,39523,21959,4715,23636,15849,3471,67352,7957,1402,290,104,32
"447","MMETSP1090",39455,63675,20397,32580,19312,3838,24203,14573,2862,39370,6209,1047,102,22,4
"448","MMETSP1091",51198,57537,17791,36224,15715,5023,18211,10616,3389,39139,7312,1873,187,49,6
"449","MMETSP1094",87610,96143,26682,64944,28018,9437,30918,18719,6313,64913,11274,3417,312,84,30
"450","MMETSP1095",5285,40556,10332,20750,9302,323,8425,5836,200,32084,4574,134,47,16,1
"451","MMETSP1096",74018,81517,23839,53487,23637,NA,25654,15078,NA,55549,10395,NA,314,93,NA
"452","MMETSP1097",19296,18746,8815,12964,7107,NA,8174,5583,NA,10091,2308,NA,481,157,NA
"453","MMETSP1098",65865,78528,21453,47925,20320,8023,21870,14073,5258,56379,9126,3097,279,85,27
"454","MMETSP1100",83790,109099,31018,67607,34721,10377,44378,27600,8001,64512,10981,2828,209,48,16
"455","MMETSP1101",73662,96749,26525,56435,25438,10168,28202,17373,6867,68248,9884,3675,299,72,19
"456","MMETSP1102",100847,94548,22082,66657,25817,7770,29322,18250,5463,64791,10000,2674,435,128,30
"457","MMETSP1103",27001,66327,12182,21499,11337,1001,9976,6429,581,55972,5848,481,379,117,39
"458","MMETSP1104",31307,61091,18716,27678,16906,4432,20018,13690,3677,40883,4224,838,190,56,9
"459","MMETSP1105",31721,52444,11917,25437,10493,1683,10224,6560,1002,42129,5342,768,91,30,9
"460","MMETSP1106",39052,63030,18749,28272,16519,2419,20042,11980,1886,42851,5654,584,137,34,13
"461","MMETSP1107",25172,49503,12694,21770,11172,1766,11547,7190,1087,37748,4628,740,208,63,16
"462","MMETSP1110",138369,204411,37138,110729,44029,12025,44462,24905,6506,159725,23884,6213,224,48,13
"463","MMETSP1114",55089,65469,19418,45842,18075,3510,25975,14324,2805,39311,5947,855,183,59,29
"464","MMETSP1115",75291,112625,21216,59806,23118,4923,20557,11391,2579,91891,13603,2581,177,49,14
"465","MMETSP1116",68167,87009,18586,52689,19921,5514,17441,9726,2857,69260,12035,2894,308,90,23
"466","MMETSP1117",64980,81013,17864,49823,18963,5103,16659,9438,2745,64067,11176,2595,287,88,19
"467","MMETSP1122",73622,113800,21497,59609,23143,4594,20787,11539,2480,92930,13597,2369,83,13,3
"468","MMETSP1123",64145,67085,16371,47390,17063,5452,15128,8907,2903,51642,9825,2730,315,101,41
"469","MMETSP1124",63086,70556,17047,47625,17800,5846,15798,9169,3140,54322,10352,2968,436,132,35
"470","MMETSP1125",68385,99708,20316,54780,21646,5448,19224,10760,2740,80181,12578,2984,303,86,34
"471","MMETSP1126",99,168,92,75,39,4,42,19,3,126,25,0,0,0,0
"472","MMETSP1127",32282,49490,15231,22605,12252,967,14918,9068,810,34325,4247,178,247,52,9
"473","MMETSP1128",29099,46645,14647,21560,11635,1017,13881,8392,833,32553,4158,194,211,42,12
"474","MMETSP1129",28337,46752,12697,21762,10878,2107,11436,6974,1378,35204,4908,793,112,35,7
"475","MMETSP1130",1288,1256,626,831,360,34,393,254,26,844,162,5,19,9,3
"476","MMETSP1131",15320,11138,4674,8137,3615,284,3628,2455,197,7207,1624,73,303,116,30
"477","MMETSP1132",31184,49727,13503,23881,11685,2208,12397,7684,1459,37145,5211,817,185,51,10
"478","MMETSP1136",60021,65631,21201,38295,20049,4972,23377,14580,3727,42073,7271,1411,181,40,9
"479","MMETSP1137",1489,36495,13616,22028,11539,169,12497,7876,119,23706,4597,53,292,93,1
"480","MMETSP1138",45302,49383,16924,28446,14888,4391,16623,10232,3113,32488,5965,1436,272,73,15
"481","MMETSP1139",25079,40110,13202,19994,10655,2307,12300,7212,1600,27705,4185,770,105,33,12
"482","MMETSP1140",30485,42173,14081,22542,11368,2299,12898,7466,1563,28921,4836,755,354,132,23
"483","MMETSP1141",32338,59614,17814,26965,15550,1818,18796,11455,1511,40553,5129,345,265,76,21
"484","MMETSP1142",36164,60731,18735,29160,16642,2006,20376,12642,1707,40026,5271,344,329,85,14
"485","MMETSP1143",37874,63491,19850,30958,17857,2684,21826,13755,2266,41403,5369,467,262,70,21
"486","MMETSP1144",35667,60978,18630,29079,16891,1939,20611,12922,1612,40003,5210,377,364,93,13
"487","MMETSP1147",2542,887,508,1068,433,283,543,431,257,325,88,45,19,6,6
"488","MMETSP1148",119,55,41,69,28,NA,36,29,NA,14,4,NA,5,1,NA
"489","MMETSP1150",51882,83060,24904,44150,27648,4534,34632,21961,3603,48243,8204,1042,185,45,12
"490","MMETSP1151",50362,77905,24225,42486,26282,5195,32730,20353,4003,44925,8115,1331,250,70,16
"491","MMETSP1152",52809,86796,24950,45087,28193,3611,35717,22607,2893,50920,8571,840,159,40,11
"492","MMETSP1153",51612,86163,24676,43923,27858,3667,35059,22309,2955,50939,8370,833,165,42,16
"493","MMETSP1154",52243,84605,24678,43929,27493,3599,34718,21947,2894,49746,8235,813,141,30,4
"494","MMETSP1155",52407,87365,24743,44046,27892,3113,35239,22210,2490,51995,8451,714,131,31,10
"495","MMETSP1156",51388,84411,24525,43295,27225,3663,34334,21668,2924,49998,8221,847,79,17,7
"496","MMETSP1157",52313,87828,24662,43986,27877,3190,35328,22342,2593,52407,8385,704,93,22,7
"497","MMETSP1159",2543,22337,7544,8613,5444,226,4890,3363,149,17162,2589,75,285,92,24
"498","MMETSP1160",20018,49873,11698,17194,9126,822,10217,6024,564,39536,4476,301,120,21,6
"499","MMETSP1161",1977,28874,9163,11222,7004,NA,6456,4443,NA,22118,3180,NA,300,92,NA
"500","MMETSP1162",39133,57385,18955,31496,18262,NA,22713,14260,NA,34447,5815,NA,225,54,NA
"501","MMETSP1163",46917,97507,19637,39834,24136,NA,35327,23736,NA,61542,7099,NA,638,203,NA
"502","MMETSP1164",27772,51447,14425,24778,16364,2214,20828,14044,1823,30483,4025,435,136,40,12
"503","MMETSP1165",1249,48706,14113,21325,15443,239,17552,12906,202,30870,3399,38,284,86,1
"504","MMETSP1166",38876,82718,17501,33388,20336,3793,27925,18474,3098,54365,5975,1044,428,132,74
"505","MMETSP1167",41182,62825,15146,32192,15068,3215,14762,9472,2166,47656,7002,1142,407,135,39
"506","MMETSP1169",40009,67239,18708,27862,17088,3325,18908,11762,2601,48192,6697,794,139,32,3
"507","MMETSP1170",11581,16865,7045,9378,5853,632,7123,4692,525,9360,1752,113,382,114,33
"508","MMETSP1171",20449,29135,8250,15771,7277,1370,6512,3975,814,22333,4101,590,290,85,24
"509","MMETSP1172",13901,29215,8228,11331,6437,545,5701,3830,371,23442,3307,184,72,33,7
"510","MMETSP1173",33405,59423,16712,27438,13650,1628,15726,8965,1172,43331,6390,501,366,117,26
"511","MMETSP1174",65184,70424,17585,43853,16876,3002,16616,10014,1777,53608,9091,1328,200,53,17
"512","MMETSP1175",51565,55377,16796,36767,15302,5782,17626,10855,4232,37558,6504,1842,193,53,7
"513","MMETSP1176",33319,43313,11784,25502,10875,NA,9654,5772,NA,33527,6039,NA,132,41,NA
"514","MMETSP1177",1000,49211,12123,25140,11310,NA,10893,7156,NA,38116,5156,NA,202,89,NA
"515","MMETSP1178",25477,31089,11719,19242,9788,817,10692,6617,657,20028,4327,175,369,109,27
"516","MMETSP1180",22693,25811,9718,14350,7568,1831,7314,4779,1207,18259,3359,672,238,65,21
"517","MMETSP1309",15611,34173,10014,13393,7784,571,8338,5066,375,23618,3692,148,2217,713,252
"518","MMETSP1310",36383,80214,22072,32069,20374,3117,22150,13728,2261,57669,8092,935,395,113,29
"519","MMETSP1311",14515,24761,10203,11927,7349,1205,8520,4941,835,16022,3327,401,219,63,15
"520","MMETSP1312",2952,31863,9485,9486,6498,NA,7409,4425,NA,24230,2837,NA,224,72,NA
"521","MMETSP1315",23145,40499,13937,18935,11219,1219,13850,8335,961,26298,4157,274,351,106,21
"522","MMETSP1316",4791,29082,10506,14721,8095,297,8782,5177,197,20004,3908,105,296,92,0
"523","MMETSP1317",28878,21465,8253,11289,7886,2948,8323,6829,2263,11529,2002,748,1613,525,148
"524","MMETSP1318",32307,56097,15505,25170,13713,2052,14078,8421,1344,41838,6426,749,181,61,13
"525","MMETSP1319",32559,54559,17634,26309,15540,2618,17524,10649,1880,36812,6051,814,223,72,17
"526","MMETSP1320",26882,48023,14618,22468,12117,2008,13757,7990,1340,34157,4942,724,109,36,10
"527","MMETSP1321",29766,56892,14697,24584,12565,2011,13599,7885,1242,43032,5592,843,261,79,21
"528","MMETSP1322",30920,43597,13391,25522,11214,2287,11996,7000,1465,31512,5577,925,89,20,2
"529","MMETSP1323",30809,38099,13951,22842,11530,2725,13460,8139,1980,24488,4259,788,151,38,13
"530","MMETSP1324",42429,62716,18480,32329,16204,2480,20403,12216,1915,42003,6016,612,310,83,20
"531","MMETSP1326",42141,64703,22087,33837,22708,4974,27856,18663,4190,36605,5191,861,242,56,15
"532","MMETSP1327",15978,39777,10917,13934,8237,640,8818,5166,445,30847,3895,211,112,34,5
"533","MMETSP1328",27845,55126,14335,23767,13161,2441,15191,8720,1522,39663,5444,1012,272,78,16
"534","MMETSP1329",1324,48681,15403,25084,15649,81,20166,12414,63,28387,4915,20,128,42,0
"535","MMETSP1330",16181,35688,10952,13497,8718,1927,8796,5506,1276,26341,3936,705,551,179,54
"536","MMETSP1333",76564,83877,21587,56626,23750,8180,22320,14298,5038,61193,11303,3464,364,92,24
"537","MMETSP1334",60887,66621,21347,40780,20258,4683,23705,13948,3221,42465,8247,1642,451,115,24
"538","MMETSP1335",26549,37300,13080,20488,10931,2451,12049,7321,1694,25160,4411,811,91,25,9
"539","MMETSP1336",28868,42723,11035,22745,9718,1177,8916,5297,699,33743,5637,544,64,20,4
"540","MMETSP1338",107171,146848,26456,82556,31239,NA,27170,16147,NA,119436,17952,NA,242,56,NA
"541","MMETSP1339",24389,34592,11305,16769,9495,NA,9428,6070,NA,24969,4285,NA,195,64,NA
"542","MMETSP1344",110828,199684,33472,89062,40181,NA,60622,36738,NA,138129,16796,NA,933,261,NA
"543","MMETSP1345",2256,59940,9761,14947,8637,NA,7921,5337,NA,51853,4051,NA,166,52,NA
"544","MMETSP1347",4721,26134,8528,13584,7274,199,6415,4327,132,19655,3601,65,64,25,2
"545","MMETSP1348",22995,41241,10753,17167,9447,1464,8384,5499,907,32700,4774,564,157,55,24
"546","MMETSP1349",21247,32978,9446,15174,8167,801,7438,4896,507,25386,4180,282,154,54,20
"547","MMETSP1352",29115,37342,11369,23197,9054,1625,10979,5974,1035,26244,4582,667,119,39,5
"548","MMETSP1353",5215,26745,9197,12772,6833,493,7041,4284,330,19585,3059,169,119,36,5
"549","MMETSP1354",4942,26669,9349,14302,7255,408,7415,4626,286,19141,3362,132,113,36,1
"550","MMETSP1355",38957,70113,19328,31125,16934,4898,20481,11834,3305,49285,6151,1769,347,107,27
"551","MMETSP1356",43767,67000,19081,31419,16459,4398,18027,10558,2893,48614,6764,1623,359,110,34
"552","MMETSP1357",52525,95190,24576,41995,23339,5644,27864,16582,4099,67011,8061,1668,315,92,30
"553","MMETSP1358",36004,49680,14748,28326,12881,897,12723,7502,658,36716,6337,241,241,91,13
"554","MMETSP1359",35304,49920,13715,27013,12524,1857,12698,7588,1219,36762,6730,652,460,138,23
"555","MMETSP1360",42249,51880,13597,32514,12465,1708,13009,7668,1058,38637,6573,691,234,80,22
"556","MMETSP1361",32931,54371,12372,26428,11601,947,10378,6458,627,43721,6789,370,272,81,22
"557","MMETSP1362",29356,50962,10932,21781,9705,1161,8808,5362,644,41933,5451,594,221,70,24
"558","MMETSP1363",49697,81291,23755,41648,24925,3190,32017,19517,2538,49120,8210,746,154,49,16
"559","MMETSP1364",47723,77245,23228,39996,24287,3438,30802,18898,2724,46264,7753,772,179,47,20
"560","MMETSP1365",51079,84782,24128,43068,26506,3127,34034,21264,2470,50627,8417,723,121,25,8
"561","MMETSP1366",52229,91845,24447,44234,27646,2621,35436,22460,2158,56263,8705,533,146,35,11
"562","MMETSP1367",78634,132422,23834,63948,26106,4511,23661,13299,2521,108193,15475,2232,568,161,33
"563","MMETSP1369",88291,129244,27012,70182,29156,8389,26822,15966,4955,101739,15583,3785,683,203,46
"564","MMETSP1370",80643,99483,23381,58758,24200,7721,23076,15218,5273,75756,11466,2817,651,205,66
"565","MMETSP1371",90138,110756,25715,61650,26676,7611,25683,17214,5337,84732,12252,2657,341,118,36
"566","MMETSP1374",75410,99254,19865,59210,22976,5541,18892,11269,2864,79987,13765,3052,375,105,40
"567","MMETSP1377",149771,140774,39754,101908,46088,24314,43902,31153,16288,95649,18093,8725,1225,391,83
"568","MMETSP1380",40432,32735,10603,26967,9971,2626,9864,7369,1900,22698,3524,816,173,53,9
"569","MMETSP1381",21667,27622,10229,15497,7981,NA,8887,5356,NA,18520,3357,NA,215,85,NA
"570","MMETSP1384",75739,72018,20097,60483,20704,5135,21030,12956,3281,50909,10608,2127,79,28,11
"571","MMETSP1385",2452,62990,17742,49171,16883,71,18347,10735,55,44606,8713,22,37,13,0
"572","MMETSP1386",2319,47314,11208,11689,8532,53,9824,6222,36,37371,3324,16,119,28,2
"573","MMETSP1387",13796,46538,11738,12775,9693,390,11052,7303,330,35328,3336,88,158,41,13
"574","MMETSP1388",51823,92308,25360,44339,27102,3001,34503,21191,2397,57701,8602,697,104,27,13
"575","MMETSP1389",54048,61659,18837,38601,16548,4871,19514,11368,3274,41941,7710,1817,204,63,16
"576","MMETSP1390",253,523,314,240,143,2,136,68,0,383,81,1,4,1,0
"577","MMETSP1391",38192,48077,17633,27973,13978,3396,17256,9976,2579,30717,4804,885,104,26,8
"578","MMETSP1392",2102,55295,17274,27412,13778,100,16407,9400,75,38710,5629,28,178,43,0
"579","MMETSP1393",16326,31532,11250,14054,8561,2642,9661,5932,1815,21801,3240,898,70,23,9
"580","MMETSP1394",1035,49343,11872,23748,10630,60,9567,5749,25,39633,5816,37,143,41,0
"581","MMETSP1395",33020,57517,12668,25490,12873,2879,11963,8737,1906,45065,4961,1058,489,150,29
"582","MMETSP1396",49169,34854,13961,22813,12828,NA,14043,11117,NA,20450,3169,NA,361,115,NA
"583","MMETSP1397",34800,119401,10476,24989,10778,NA,12735,8474,NA,105629,6085,NA,1037,305,NA
"584","MMETSP1399",8931,31231,8331,8248,5780,216,6028,3384,154,25038,2845,79,165,42,8
"585","MMETSP1400",14968,48882,11994,13748,10210,495,11703,7701,400,37039,3495,116,140,42,10
"586","MMETSP1401",15284,42733,11880,14230,10550,713,12143,7907,587,30485,3307,145,105,25,8
"587","MMETSP1402",15692,39562,10987,14396,11198,1851,12759,9079,1548,26686,2882,327,117,35,20
"588","MMETSP1403",15140,46866,12034,13810,10050,608,11664,7677,482,35103,3311,151,99,25,9
"589","MMETSP1404",16116,46020,12222,14421,10031,927,11774,7531,730,34176,3572,223,70,23,8
"590","MMETSP1405",34792,49792,13585,28392,11805,1259,12269,7339,805,37346,5970,512,177,55,21
"591","MMETSP1406",32728,49040,13268,27100,11468,974,11901,7086,620,37040,5789,416,99,30,7
"592","MMETSP1407",34960,49841,13599,28604,11740,1135,12287,7325,702,37476,5966,488,78,22,8
"593","MMETSP1408",32100,50835,13292,26685,11515,804,11952,7108,523,38794,5950,344,89,25,5
"594","MMETSP1409",903,50302,13268,26634,11540,NA,11903,7065,NA,38299,5964,NA,100,25,NA
"595","MMETSP1410",33354,51573,13452,27332,11603,762,12306,7279,507,39135,6036,299,132,39,3
"596","MMETSP1411",33394,50285,13236,27332,11525,1066,12037,7182,706,38180,5935,412,68,19,4
"597","MMETSP1412",20,10,8,13,7,3,4,4,2,6,2,0,0,0,0
"598","MMETSP1413",32010,48041,13170,26754,11465,1219,11723,7008,776,36256,5818,495,62,12,6
"599","MMETSP1414",32138,49371,13335,26682,11520,1051,11944,7098,669,37358,5816,447,69,17,7
"600","MMETSP1415",33092,48428,13332,27506,11510,1111,11916,7059,672,36448,5845,515,64,12,4
"601","MMETSP1416",32717,50689,13298,27208,11645,887,12064,7215,545,38543,5981,397,82,20,8
"602","MMETSP1417",31856,50313,13333,26456,11518,913,11951,7094,585,38286,5835,374,76,22,10
"603","MMETSP1418",888,51570,13398,26715,11735,29,12034,7156,24,39452,5972,7,84,24,0
"604","MMETSP1419",32494,51937,13402,26940,11644,799,12173,7152,495,39672,6003,349,92,26,10
"605","MMETSP1420",32135,50275,13318,26691,11540,NA,11977,7140,NA,38227,5827,NA,71,21,NA
"606","MMETSP1421",32560,48739,13336,27146,11496,NA,11896,7052,NA,36565,5799,NA,278,77,NA
"607","MMETSP1422",32732,49732,13312,27137,11511,1095,11827,7090,670,37800,5771,475,105,29,6
"608","MMETSP1423",2841,43435,12597,22835,10457,117,11388,6451,96,31968,4911,30,79,23,0
"609","MMETSP1424",43252,62684,16684,34015,14682,4400,15876,8979,2725,46615,6577,1799,193,54,15
"610","MMETSP1425",48673,70993,18394,38071,16452,4919,18446,10370,3176,52320,7175,1895,227,61,18
"611","MMETSP1426",58414,152667,31488,74229,33386,8165,41437,23762,5687,110610,13645,2688,620,150,31
"612","MMETSP1428",33141,45611,12211,27300,10895,1248,10619,6296,733,34847,6265,575,145,41,8
"613","MMETSP1429",23506,29810,9778,18348,8659,757,8004,5116,526,21291,4720,235,515,176,43
"614","MMETSP1432",5078,34958,9853,18305,8645,245,7531,4611,145,27329,4797,111,98,25,1
"615","MMETSP1433",26796,71557,12056,19763,10564,2166,11468,7752,1555,59699,5025,760,390,135,55
"616","MMETSP1434",20091,19075,7461,15160,6451,NA,5823,3531,NA,13161,3601,NA,91,30,NA
"617","MMETSP1435",8658,7317,3558,5386,2795,NA,2538,1811,NA,4510,1313,NA,269,79,NA
"618","MMETSP1436",104672,93601,29854,74521,29126,16311,35897,19077,10541,57621,12533,6491,83,20,3
"619","MMETSP1437",31321,30019,9842,20970,8649,NA,7742,4936,NA,21923,4663,NA,354,105,NA
"620","MMETSP1438",43875,46388,14801,28370,12848,5093,12338,7886,3120,33916,5611,2124,134,46,10
"621","MMETSP1439",80982,87449,23863,58792,23395,9265,25933,14047,5547,61425,12232,4331,91,24,10
"622","MMETSP1440",77363,78996,20538,54433,21213,6081,23760,14121,3829,55115,10095,2620,121,29,9
"623","MMETSP1441",81670,110054,29257,60756,29937,8267,39948,21460,5799,70021,11520,2810,85,27,8
"624","MMETSP1442",25015,31480,9613,18732,7829,797,8551,4651,559,22679,4159,261,250,77,20
"625","MMETSP1443",22267,23194,7879,16057,6898,1316,5844,3613,800,17231,4159,646,119,38,7
"626","MMETSP1444",39194,56058,18735,31179,17582,5109,21011,12992,3793,34950,6159,1500,97,18,6
"627","MMETSP1445",46337,57995,17118,27865,14757,3192,15420,9363,2129,42420,6510,1171,155,43,8
"628","MMETSP1446",15994,30973,10280,13474,7776,790,8203,5217,541,22451,3822,260,319,91,26
"629","MMETSP1447",37747,40670,12845,27834,11090,1728,11446,6700,1138,29043,5827,669,181,57,13
"630","MMETSP1449",29909,46119,11440,23537,10439,NA,9540,5692,NA,36462,6268,NA,117,40,NA
"631","MMETSP1450",57982,90286,27716,47553,29003,5269,34776,22213,4235,54782,9364,1203,728,167,38
"632","MMETSP1451",54204,60841,19040,40131,14734,2587,18904,9303,1674,41710,6856,995,227,70,23
"633","MMETSP1452",20669,40513,14650,18437,12714,2373,15636,9806,1924,24310,3889,513,567,140,43
"634","MMETSP1453",16135,29384,11088,12621,8174,1336,9508,5812,988,19654,3439,398,222,67,20
"635","MMETSP1456",12219,29908,10023,10795,7093,595,7989,4784,435,21746,3112,166,173,63,18
"636","MMETSP1459",15204,27304,10120,12869,7577,1194,7929,4604,792,19175,3580,440,200,63,15
"637","MMETSP1460",3437,30105,8655,9949,6063,118,6554,3674,83,23343,3001,40,208,64,2
"638","MMETSP1462",105264,152926,34244,83790,36719,NA,45932,23543,NA,106825,17779,NA,172,41,NA
"639","MMETSP1463",21930,36128,13516,18670,11082,NA,13291,7813,NA,22577,4243,NA,260,69,NA
"640","MMETSP1464",27945,49585,16899,22682,14434,2361,18244,10557,1803,31097,4967,601,244,69,23
"641","MMETSP1465",2744,27177,11006,14318,8544,128,9915,5907,96,16591,3773,37,671,208,6
"642","MMETSP1466",29304,47592,15167,23159,13393,3056,16093,9889,2319,31398,4497,795,101,29,5
"643","MMETSP1467",30732,63487,16040,26400,16475,2428,20435,13247,1874,42694,5048,622,358,101,26
"644","MMETSP1468",47261,47533,15915,25503,12881,3662,15858,9196,2672,31574,4965,1081,101,30,6
"645","MMETSP1469",14645,35311,10846,12158,7899,950,8994,5525,694,26141,3395,271,176,68,17
"646","MMETSP1470",41585,77290,22874,34961,21721,4237,23535,14859,2930,53354,9024,1403,401,136,34
"647","MMETSP1471",14502,22365,8925,12168,6702,1441,7030,4040,939,14196,3211,504,1139,369,151
"648","MMETSP1472",3963,17388,7675,10054,5793,280,5607,3283,190,11473,2872,91,308,94,2
"649","MMETSP1473",2401,37145,11722,13811,8648,87,9770,6001,61,27194,3639,28,181,53,1
"650","MMETSP1474",39909,81343,20521,32574,19038,4250,18921,12050,2701,62265,8241,1672,157,46,19
"651","MMETSP1475",3841,42430,9496,11385,7217,135,7047,4515,88,35205,3429,48,178,56,4
